Time,Displacement,Force
0.026565,0.0221375,0.58015745
0.162307,0.13525583333333335,0.52827345
0.2531273,0.21093941666666668,1.13201455
0.3418926,0.2849105,0.91032836
0.4356231,0.36301925,1.01881309
0.5285122,0.4404268333333333,0.64147491
0.6209678,0.5174731666666667,0.830144
0.723196,0.6026633333333333,0.95277891
0.8216702,0.6847251666666667,0.54714036
0.9221821,0.7684850833333333,0.49997309
1.019447,0.8495391666666667,0.570724
1.1198522,0.9332101666666667,0.622608
1.2230052,1.019171,0.88674473
1.3225809,1.10215075,0.74524291
1.4199038,1.1832531666666666,0.47167273
1.5179419,1.2649515833333334,0.86787782
1.6162291,1.3468575833333334,0.933912
1.7172084,1.4310070000000001,0.77354327
1.8221649,1.51847075,1.04711345
1.9321192,1.6100993333333333,1.08013055
2.0285771,1.6904809166666668,1.02352982
2.1287941,1.7739950833333333,0.882028
2.2314373,1.8595310833333334,1.04711345
2.3305712,1.9421426666666668,0.77826
2.4272772,2.022731,0.73580945
2.5319912,2.109992666666667,0.89617818
2.6228744,2.185728666666667,0.58959091
2.7329972,2.2774976666666666,0.91504509
2.8263536,2.355294666666667,0.78297673
2.9250885,2.4375737500000003,0.55185709
3.0314399,2.5261999166666667,0.77826
3.1356276,2.613023,0.89617818
3.2365787,2.697148916666667,0.49525636
3.3332683,2.777723583333333,0.74052618
3.4259512,2.8549593333333334,0.985796
3.5257563,2.93813025,0.68864218
3.6295976,3.024664666666667,0.89617818
3.7231654,3.1026378333333335,1.02352982
3.820311,3.1835925,0.69335891
3.9277548,3.2731290000000004,0.61789127
4.0206144,3.3505120000000006,0.830144
4.1134012,3.4278343333333336,0.64619164
4.2231506,3.519292166666667,0.674492
4.326799,3.6056658333333336,0.71694255
4.4322103,3.6935085833333337,0.76882655
4.538121,3.7817675000000004,0.57544073
4.6437677,3.8698064166666666,0.68864218
4.7361805,3.9468170833333334,0.64619164
4.8330957,4.02757975,0.94334545
4.9265023,4.105418583333334,0.933912
5.0335066,4.194588833333333,0.882028
5.1320553,4.276712750000001,0.84429418
5.2285959,4.35716325,0.74052618
5.3272786,4.439398833333334,0.76410982
5.4389429,4.532452416666667,0.65562509
5.5258871,4.6049059166666675,0.64147491
5.639694,4.699745000000001,0.58487418
5.7408437,4.784036416666667,0.56129055
5.8434958,4.869579833333334,0.44337236
5.9163372,4.930281,0.48110618
6.0165552,5.013796,0.52827345
6.1607486,5.133957166666667,0.76882655
6.2343382,5.1952818333333335,0.67920873
6.3217983,5.26816525,0.72165927
6.4271891,5.355990916666666,0.66505855
6.5128744,5.427395333333334,0.91976182
6.6175933,5.514661083333333,0.985796
6.7230395,5.602532916666666,0.50940655
6.8441587,5.703465583333334,0.22168618
6.9187796,5.765649666666667,0.67920873
7.0241627,5.8534689166666665,0.92447855
7.1742866,5.978572166666667,0.89146145
7.2660441,6.05503675,0.68864218
7.356938,6.1307816666666675,0.51412327
7.445701,6.204750833333334,0.48582291
7.5350347,6.279195583333333,0.38677164
7.6233994,6.352832833333334,0.58959091
7.7216919,6.43474325,0.66977527
7.8152515,6.512709583333333,0.60374109
7.9250044,6.604170333333333,0.66977527
8.0309383,6.692448583333334,0.49997309
8.1212899,6.7677415833333345,0.54714036
8.2131094,6.844257833333334,0.42922218
8.3219832,6.934986,0.47638945
8.4159122,7.013260166666666,0.51884
8.5423641,7.11863675,0.49053964
8.6220328,7.185027333333333,0.47167273
8.7177929,7.264827416666666,0.48110618
8.813105,7.344254166666667,0.55185709
8.9427357,7.452279750000001,0.65562509
9.0231917,7.519326416666667,0.60374109
9.1190494,7.599207833333334,0.58487418
9.2337755,7.694812916666667,0.53299018
9.3288478,7.774039833333334,0.49053964
9.4307612,7.858967666666667,0.38205491
9.5356987,7.946415583333333,0.674492
9.6376023,8.03133525,0.73109273
9.7385474,8.115456166666666,0.80184364
9.8402072,8.200172666666667,0.76410982
9.9690317,8.307526416666667,0.80656036
10.0752092,8.396007666666668,0.58487418
10.1825189,8.485432416666667,0.622608
10.2156843,8.51307025,0.80184364
10.3737192,8.644766,0.81599382
10.4823368,8.735280666666668,0.81127709
10.5132849,8.76107075,0.77354327
10.6758138,8.8965115,0.31602073
10.7851606,8.987633833333334,0.32545418
10.8108634,9.009052833333334,0.57544073
10.981201,9.151000833333335,0.42922218
11.0119175,9.176597916666667,0.45752255
11.1795487,9.316290583333334,0.32545418
11.2917156,9.409763,0.57544073
11.3196359,9.433029916666667,0.65090836
11.4919371,9.57661425,0.58487418
11.5195017,9.59958475,0.60374109
11.6922324,9.743527,0.38677164
11.7168522,9.7640435,0.415072
11.8934812,9.911234333333335,0.77826
11.9171542,9.930961833333335,0.56129055
12.0170297,10.014191416666668,0.33960436
12.1846622,10.153885166666667,0.39620509
12.2152463,10.179371916666668,0.75467636
12.3877184,10.323098666666668,0.45280582
12.4862482,10.405206833333335,0.56600727
12.5134534,10.427877833333334,0.69335891
12.6917373,10.57644775,0.43393891
12.7925796,10.660483000000001,0.47638945
12.8184788,10.682065666666666,0.42450545
12.912979,10.760815833333334,0.52355673
13.0121249,10.843437416666667,0.61317455
13.1877618,10.9898015,0.64619164
13.2131871,11.010989250000002,0.73109273
13.3109747,11.092478916666666,0.82071055
13.4908208,11.242350666666667,0.67920873
13.5198654,11.266554500000002,0.69807564
13.6196301,11.34969175,0.77826
13.8000129,11.500010750000001,0.58487418
13.8260798,11.521733166666667,0.55657382
13.9195448,11.599620666666668,0.69807564
14.0177746,11.681478833333333,0.59430764
14.1186741,11.76556175,0.49997309
14.2993063,11.916088583333334,0.51884
14.3251902,11.9376585,0.68864218
14.4424103,12.035341916666667,0.75939309
14.5416676,12.118056333333334,0.67920873
14.6682612,12.223551,0.570724
14.794099,12.328415833333333,0.38677164
14.8208775,12.35073125,0.16980218
14.9156226,12.429685500000001,0.39148836
15.0149148,12.512429000000001,0.28772036
15.1262298,12.605191500000002,0.21225273
15.2257248,12.688104000000001,0.56600727
15.3456772,12.788064333333335,0.65090836
15.4454916,12.871243000000002,0.50468982
15.5658021,12.971501750000002,0.77826
15.6702549,13.05854575,0.76410982
15.7946766,13.162230500000001,0.62732473
15.8978393,13.248199416666667,0.43865564
16.004907,13.3374225,0.44337236
16.031895,13.3599125,0.63675818
16.1297772,13.441481,0.674492
16.2286806,13.523900500000002,0.48582291
16.3277753,13.606479416666666,0.66034182
16.4258052,13.688171,0.74995964
16.5213865,13.767822083333332,0.77826
16.6192234,13.849352833333333,0.63204145
16.7200772,13.933397666666666,0.54242364
16.8458168,14.038180666666669,0.56129055
16.974557,14.145464166666669,0.73109273
17.0139362,14.178280166666667,0.78769345
17.1140274,14.261689500000001,0.77354327
17.2139799,14.344983249999999,0.78297673
17.3135376,14.427948,0.47638945
17.4119355,14.509946249999999,0.47638945
17.5125404,14.593783666666667,0.43865564
17.6117931,14.676494250000001,0.37262145
17.7119722,14.759976833333335,0.44337236
17.819605,14.849670833333333,0.61317455
17.9193817,14.932818083333332,0.59430764
18.0185767,15.015480583333334,0.68864218
18.1192108,15.099342333333334,0.47638945
18.2206385,15.183865416666666,0.29243709
18.3219322,15.268276833333333,0.50468982
18.4241151,15.353429250000001,0.56600727
18.5262421,15.438535083333335,0.54714036
18.6303369,15.52528075,0.39148836
18.7342967,15.61191391666667,0.81599382
18.8380446,15.698370500000001,0.58015745
18.9432824,15.786068666666669,0.56600727
19.078003,15.898335833333332,0.46223927
19.1859173,15.988264416666667,0.33960436
19.2958688,16.079890666666667,0.363188
19.4049243,16.17077025,0.55185709
19.4235093,16.18625775,0.49997309
19.5140361,16.26169675,0.27828691
19.6256019,16.35466825,0.41978873
19.7323746,16.443645500000002,0.45280582
19.8403544,16.533628666666665,0.61789127
19.9474429,16.622869083333335,0.65090836
20.0545587,16.712132250000003,0.58959091
20.1597849,16.79982075,0.53299018
20.2721114,16.893426166666668,0.43865564
20.4146513,17.012209416666668,0.46223927
20.4461714,17.03847616666667,0.36790473
20.5535199,17.12793325,0.59902436
20.6647125,17.220593750000003,0.69807564
20.7759324,17.313277,0.49997309
20.8879968,17.406664,0.37733818
21.0023517,17.50195975,0.32545418
21.0154932,17.512911000000003,0.44337236
21.1157372,17.59644766666667,0.33488764
21.2200253,17.683354416666667,0.155652
21.3284647,17.773720583333336,0.54242364
21.4164163,17.847013583333336,0.64619164
21.5699318,17.974943166666666,0.53770691
21.6841821,18.07015175,0.49525636
21.8017164,18.168097,0.51884
21.8338849,18.194904083333334,0.42922218
21.93961,18.28300833333333,0.27357018
22.0512745,18.376062083333334,0.54242364
22.1657808,18.471484,0.73580945
22.2109401,18.50911675,0.61317455
22.3198675,18.599889583333336,0.60845782
22.4195939,18.682994916666665,0.49997309
22.528997,18.77416416666667,0.67920873
22.6406196,18.867183,0.50468982
22.7540086,18.961673833333332,0.415072
22.8683119,19.056926583333333,0.61789127
22.9908405,19.159033750000003,0.66034182
23.1345654,19.2788045,0.45280582
23.2486596,19.373883,0.57544073
23.3622151,19.468512583333336,0.51412327
23.474699,19.562249166666668,0.25470327
23.5938206,19.66151716666667,0.53770691
23.6279282,19.689940166666666,0.48110618
23.7387475,19.782289583333334,0.45752255
23.8545778,19.878814833333337,0.415072
23.9730119,19.977509916666666,0.49053964
24.0114976,20.009581333333333,0.58487418
24.1162007,20.096833916666668,0.37262145
24.2333837,20.194486416666667,0.40092182
24.3828591,20.319049250000003,0.54242364
24.4175862,20.3479885,0.61789127
24.5308972,20.442414333333332,0.63675818
24.647864,20.539886666666668,0.65562509
24.770366,20.641971666666667,0.15093527
24.8188481,20.682373416666668,0.30187055
24.9216928,20.768077333333334,0.622608
25.0226363,20.852196916666667,0.71222582
25.1747315,20.978942916666668,0.47638945
25.2966506,21.080542166666667,0.44808909
25.4238207,21.18651725,0.72165927
25.5766808,21.313900666666665,0.85844436
25.6151963,21.345996916666667,0.71222582
25.7286032,21.440502666666667,0.68392545
25.8490127,21.540843916666667,0.570724
26.0062601,21.671883416666667,0.58959091
26.0428585,21.702382083333337,0.75939309
26.162646,21.802205,0.570724
26.2859148,21.904929000000003,0.58487418
26.4087002,22.007250166666665,0.35847127
26.4223063,22.018588583333333,0.24526982
26.5306269,22.108855750000004,0.55657382
26.6511988,22.209332333333332,0.43393891
26.7761859,22.313488250000002,0.37733818
26.9043696,22.420308,0.65562509
26.9428099,22.452341583333336,0.64619164
27.0634828,22.552902333333332,0.42922218
27.186891,22.6557425,0.35375455
27.313003,22.76083583333333,0.50940655
27.3293696,22.774474666666666,0.22168618
27.4625673,22.88547275,0.23583636
27.5903361,22.99194675,0.63675818
27.717901,23.098250833333335,0.52827345
27.8399645,23.19997041666667,0.466956
27.961013,23.300844166666668,0.47638945
28.0951719,23.412643250000002,0.60845782
28.1361001,23.446750083333335,0.43393891
28.259777,23.549814166666668,0.08490109
28.3846543,23.653878583333334,0.25942
28.415727,23.679772500000002,0.51412327
28.5202307,23.766858916666667,0.53770691
28.6526488,23.877207333333335,0.53299018
28.7803739,23.98364491666667,0.36790473
28.8189761,24.015813416666667,0.16508545
28.940287,24.116905833333334,0.40092182
29.0651968,24.220997333333333,0.39620509
29.1919633,24.326636083333334,0.31602073
29.3193712,24.432809333333335,0.50940655
29.4456663,24.53805525,0.46223927
29.6100313,24.675026083333332,0.32545418
29.6491049,24.70758741666667,0.36790473
29.7794141,24.816178416666666,0.32073745
29.9120857,24.926738083333333,0.38677164
29.9273311,24.939442583333335,0.44808909
30.0383037,25.03191975,0.50468982
30.1650289,25.137524083333332,0.41978873
30.2936755,25.244729583333335,0.44808909
30.3150086,25.262507166666666,0.27357018
30.4225317,25.35210975,0.55185709
30.5485388,25.457115666666667,0.570724
30.6774097,25.564508083333333,0.70750909
30.8099681,25.674973416666667,0.51412327
30.823215,25.6860125,0.207536
30.9348162,25.7790135,0.41978873
31.0660806,25.8884005,0.38677164
31.1114946,25.9262455,0.58487418
31.2330066,26.0275055,0.43865564
31.3629637,26.135803083333336,0.39148836
31.4949988,26.245832333333336,0.16508545
31.6292396,26.357699666666665,0.53770691
31.7862718,26.488559833333337,0.36790473
31.9211419,26.600951583333334,0.54242364
32.0509509,26.70912575,0.48582291
32.1824872,26.818739333333333,0.74524291
32.3169377,26.930781416666665,0.43865564
32.4440407,27.036700583333335,0.34432109
32.5760006,27.146667166666667,0.49525636
32.7137731,27.26147758333333,0.38205491
32.887331,27.40610916666667,0.49997309
32.9311627,27.442635583333335,0.38205491
33.0673298,27.55610816666667,0.311304
33.204426,27.670355,0.20281927
33.2217785,27.684815416666666,0.46223927
33.3442028,27.786835666666665,0.51884
33.4787216,27.89893466666667,0.53299018
33.6132686,28.011057166666667,0.47167273
33.7455063,28.121255250000004,0.36790473
33.8799963,28.23333025,0.36790473
34.0210739,28.350894916666665,0.63204145
34.1997105,28.49975875,0.62732473
34.2442164,28.536847,0.73109273
34.3788127,28.649010583333332,0.55185709
34.518797,28.765664166666667,0.44808909
34.6536329,28.878027416666665,0.30187055
34.7952634,28.996052833333337,0.13678509
34.814519,29.012099166666665,0.37262145
34.9314165,29.109513749999998,0.61789127
35.0688644,29.22405366666667,0.70750909
35.2094709,29.34122575,0.62732473
35.223099,29.3525825,0.47638945
35.343628,29.453023333333338,0.51412327
35.485413,29.5711775,0.73580945
35.531211,29.6093425,0.61789127
35.6967775,29.74731458333334,0.47638945
35.711393,29.75949416666667,0.39148836
35.8357356,29.863113000000002,0.31602073
35.9749735,29.979144583333333,0.25942
36.1141287,30.09510725,0.44337236
36.1293805,30.107817083333337,0.466956
36.2529437,30.21078641666667,0.58487418
36.3962985,30.330248750000003,0.57544073
36.4434001,30.36950008333333,0.47638945
36.5829438,30.485786500000003,0.34903782
36.7280044,30.606670333333337,0.41978873
36.8681026,30.723418833333334,0.49053964
37.013519,30.84459916666667,0.44337236
37.152768,30.96064,0.38677164
37.296216,31.080180000000002,0.22168618
37.3133754,31.0944795,0.47638945
37.4370643,31.197553583333338,0.62732473
37.5790089,31.31584075,0.42922218
37.7259153,31.43826275,0.18395236
37.8674636,31.556219666666667,0.42450545
38.0140073,31.67833941666667,0.674492
38.0299266,31.691605500000005,0.49525636
38.1624825,31.802068750000004,0.25942
38.3099267,31.924938916666665,0.50468982
38.3292181,31.941015083333333,0.51412327
38.4527441,32.04395341666667,0.45752255
38.5985059,32.165421583333334,0.62732473
38.6170896,32.180908,0.46223927
38.7422211,32.28518425,0.49053964
38.8870517,32.40587641666667,0.63675818
39.0367443,32.530620250000005,0.52355673
39.182869,32.652390833333335,0.674492
39.3325498,32.77712483333334,0.155652
39.5071551,32.92262925,0.30187055
39.5233658,32.936138166666666,0.20281927
39.6525745,33.043812083333336,0.02830036
39.8052027,33.17100225,0.19810255
39.8219543,33.18496191666667,0.35375455
39.9127069,33.260589083333336,0.25942
40.1184301,33.432025083333336,0.22640291
40.2631469,33.55262241666667,0.48110618
40.4115292,33.67627433333333,0.66505855
40.4295676,33.69130633333334,0.49525636
40.5570526,33.797543833333336,0.49525636
40.7035984,33.919665333333334,0.42922218
40.7173574,33.93113116666667,0.38205491
40.8512182,34.04268183333333,0.35847127
40.99941,34.166175,0.30187055
41.0171906,34.18099216666667,0.33488764
41.1469404,34.289117,0.54242364
41.2949989,34.41249908333334,0.40563855
41.3156205,34.42968375,0.48110618
41.4418913,34.53490941666667,0.29243709
41.5903091,34.65859091666667,0.37262145
41.7434728,34.786227333333336,0.47167273
41.8922854,34.91023783333333,0.41035527
41.9130219,34.92751825,0.52827345
42.0399264,35.033272000000004,0.51412327
42.1898485,35.15820708333333,0.08490109
42.3419345,35.284945416666666,-0.41035527
42.4948216,35.41235133333333,-3.22152473
42.5484294,35.4570245,-33.04539127
42.6211963,35.51766358333334,-101.84357526
42.8448872,35.70407266666667,-142.28007816
42.9196632,35.766386000000004,-157.55284107
43.1315432,35.94295266666667,-172.92465525
43.2205717,36.01714308333334,-182.14585706
43.3202692,36.10022433333334,-189.14076361
43.4523508,36.210292333333335,-192.62642506
43.5183045,36.26525375,-213.45549269
43.615795,36.346495833333336,-242.34073051
43.7331103,36.44425858333334,-252.1279396
43.8168132,36.514011,-257.89649705
44.0246986,36.687248833333335,-278.06993959
44.1127234,36.76060283333334,-286.24874468
44.3142821,36.92856841666667,-304.0308065
44.4142137,37.01184475,-322.08172177
44.603118,37.169265,-336.87337849
44.6217608,37.18480066666667,-343.45792977
44.7116968,37.25974733333334,-347.16999413
44.8985167,37.41543058333334,-350.36793522
44.9204217,37.43368475,-353.26400576
45.018992,37.51582666666667,-355.75443776
45.1922917,37.660243083333334,-359.24009922
45.2188188,37.682349,-369.90461958
45.3220719,37.76839325,-407.03469666
45.483084,37.90257,-446.59388829
45.5189112,37.932426,-465.30514538
45.6181897,38.01515808333334,-490.12928102
45.7709877,38.14248975,-577.90757555
45.8181718,38.18180983333334,-703.42912171
45.9162514,38.26354283333333,-719.91408353
46.0603889,38.383657416666665,-574.67190064
46.1147135,38.428927916666666,-631.57449845
46.2163397,38.513616416666665,-829.34687296
46.3465025,38.62208541666667,-1042.47219475
46.417264,38.68105333333334,-1256.65406344
46.5154083,38.762840249999996,-1717.14814701
46.669918,38.891598333333334,-1956.60695715
46.7140263,38.92835525,-2194.79225093
46.8162776,39.01356466666667,-2436.22736981
46.966854,39.139045,-2677.06818104
47.0137354,39.17811283333334,-2916.06946864
47.119412,39.26617666666667,-3154.3726806
47.2532329,39.37769408333334,-3388.27518602
47.3134925,39.42791041666667,-3627.91794853
47.4129877,39.510823083333335,-3882.41840195
47.5443342,39.620278500000005,-4143.71094263
47.6133554,39.677796166666674,-4405.66854187
47.8385821,39.86548508333334,-5188.10284538
47.9229073,39.93575608333333,-5446.0276428
48.1332814,40.11106783333334,-5956.77373872
48.2217102,40.1847585,-6211.10910668
48.4403506,40.366958833333335,-6731.83579751
48.5227266,40.4356055,-6998.60917528
48.7380292,40.61502433333334,-7527.10431593
48.8199411,40.68328425,-8046.3688213