Time,Displacement,Force
0.0265646,0.02213716666666667,1.3999189
0.0591295,0.04927458333333334,1.13417159
0.154289,0.12857416666666668,1.0107889
0.2551774,0.21264783333333334,1.65617524
0.3552485,0.2960404166666667,1.33822756
0.4593017,0.3827514166666667,1.13891707
0.5556597,0.46304975,1.07248024
0.6555774,0.5463145,1.37144598
0.7579569,0.63163075,1.67041171
0.8546491,0.7122075833333334,1.27653622
0.9516802,0.7930668333333334,1.33348207
1.0571922,0.8809935000000001,1.15315354
1.1568281,0.9640234166666667,1.10095317
1.2545297,1.0454414166666668,1.2433178
1.3535246,1.1279371666666669,1.11044415
1.4500132,1.2083443333333332,1.00604341
1.5537768,1.2948140000000001,1.05349829
1.6512778,1.3760648333333334,1.03926183
1.751367,1.4594725,0.98706146
1.8602747,1.5502289166666667,1.02027988
1.9585011,1.6320842500000001,0.972825
2.0491091,1.7075909166666667,1.18162646
2.1557635,1.7964695833333333,1.22908134
2.2543504,1.8786253333333334,1.05824378
2.3666876,1.9722396666666668,1.10569866
2.4685756,2.0571463333333333,1.19111744
2.5640331,2.13669425,0.96333402
2.668897,2.2240808333333333,1.07722573
2.7810269,2.317522416666667,1.21959037
2.867739,2.3897825,1.16739
2.9585795,2.4654829166666667,1.16739
3.0583749,2.54864575,0.98231598
3.1605696,2.633808,0.79724195
3.2552191,2.7126825833333337,0.6216589
3.3881442,2.8234535000000003,0.94909756
3.4563125,2.8802604166666668,1.14840805
3.5621901,2.96849175,1.27179073
3.6518859,3.04323825,1.28128171
3.7529615,3.127467916666667,1.16264451
3.8630887,3.2192405833333333,1.11044415
3.9570314,3.2975261666666666,1.03926183
4.0634807,3.3862339166666673,1.11993512
4.1539515,3.46162625,0.95858854
4.2543696,3.5453080000000003,1.02502537
4.3583576,3.6319646666666667,1.06773476
4.4497668,3.708139,0.91587915
4.5660043,3.8050035833333338,0.93960659
4.6598884,3.883240333333333,1.02502537
4.7644926,3.9704105,1.13891707
4.8744334,4.0620278333333335,0.83520585
4.9722144,4.143512,0.9348611
5.071843,4.226535833333334,0.92062463
5.1558731,4.2965609166666665,0.81147841
5.2650361,4.387530083333333,0.75453256
5.3610786,4.4675655,1.05824378
5.4554378,4.5461981666666675,1.11044415
5.5686297,4.64052475,0.99655244
5.6671409,4.722617416666667,0.65487732
5.7547305,4.79560875,1.0487528
5.8638545,4.886545416666667,1.16264451
5.9604791,4.967065916666667,0.94909756
6.054987,5.0458225,1.23382683
6.1627416,5.135618000000001,0.96807951
6.2633583,5.219465250000001,0.78775098
6.3603895,5.3003245833333335,0.83046037
6.4565619,5.38046825,0.99655244
6.5543219,5.461934916666666,1.21009939
6.6525794,5.543816166666667,1.3239911
6.7509733,5.625811083333334,1.25755427
6.8505921,5.70882675,0.92537012
6.963229,5.802690833333334,0.88740622
7.0521601,5.876800083333333,0.94909756
7.1547129,5.96226075,0.8541878
7.271098,6.059248333333334,0.89215171
7.3641882,6.1368235,0.94435207
7.4821418,6.235118166666667,0.90638817
7.5590009,6.299167416666667,1.02027988
7.6666714,6.388892833333334,1.05824378
7.756214,6.463511666666667,0.96807951
7.8664746,6.5553955,1.05824378
7.9612072,6.634339333333333,1.19111744
8.0742784,6.728565333333334,1.01553439
8.1715251,6.8096042500000005,1.12468061
8.2669719,6.88914325,1.09146219
8.362334,6.968611666666668,0.95858854
8.456923,7.047435833333333,0.96333402
8.5522191,7.12684925,1.21009939
8.6487248,7.207270666666667,1.0487528
8.7760954,7.313412833333334,0.99655244
8.8582669,7.381889083333334,1.01553439
8.9530354,7.460862833333333,0.972825
9.0535187,7.544598916666667,0.79724195
9.1504425,7.625368750000001,0.93011561
9.2477619,7.70646825,1.06773476
9.3463755,7.788646250000001,0.96333402
9.4453686,7.8711405,1.0107889
9.5631291,7.96927425,1.13417159
9.6638403,8.053200250000002,1.21009939
9.7678001,8.139833416666667,1.14366256
9.8701881,8.22515675,0.95384305
9.9745985,8.312165416666668,1.30975463
10.0785374,8.398781166666668,1.39042793
10.1830447,8.485870583333334,1.03451634
10.2884746,8.573728833333334,0.99655244
10.3945096,8.662091333333333,1.11044415
10.5011695,8.750974583333333,1.06773476
10.6120885,8.843407083333334,1.15789902
10.7227176,8.935598,1.28602719
10.7509402,8.959116833333335,1.23382683
10.9203192,9.100266,1.1294261
10.9515538,9.126294833333333,1.11044415
11.1211274,9.267606166666667,1.00604341
11.2346584,9.362215333333335,0.91113366
11.2576126,9.381343833333334,0.86842427
11.3497547,9.458128916666666,1.19111744
11.5255786,9.604648833333334,1.1294261
11.6225362,9.685446833333334,1.10569866
11.6477605,9.706467083333335,1.05349829
11.827447,9.856205833333334,0.88266073
11.8510977,9.875914750000002,0.95858854
11.9480871,9.95673925,0.89215171
12.1236523,10.103043583333333,0.88266073
12.1472081,10.122673416666668,1.06773476
12.2458624,10.204885333333333,0.92537012
12.4228568,10.352380666666667,0.80673293
12.4456504,10.371375333333333,1.16264451
12.6319409,10.526617416666667,1.02027988
12.6555031,10.546252583333334,0.94909756
12.7548801,10.62906675,1.15315354
12.96111,10.800925,0.71182317
13.0741426,10.895118833333333,0.62640439
13.1711915,10.975992916666668,0.82571488
13.2886479,11.073873250000002,0.73080512
13.4076285,11.17302375,0.73080512
13.5298095,11.274841250000001,0.81147841
13.6341136,11.361761333333334,0.84469683
13.6504009,11.375334083333334,0.99180695
13.8330976,11.527581333333334,0.99655244
13.8581409,11.54845075,0.70233219
13.9531318,11.627609833333333,0.91113366
14.0498037,11.70816975,0.97757049
14.1502767,11.79189725,1.13417159
14.247856,11.873213333333334,0.89215171
14.4293396,12.024449666666667,1.06298927
14.4474929,12.039577416666667,1.31450012
14.6311568,12.192630666666666,1.1294261
14.6470503,12.20587525,0.99180695
14.8285293,12.35710775,1.01553439
14.8534734,12.3778945,0.89689719
14.9478122,12.456510166666666,1.1294261
15.0470144,12.539178666666666,1.27653622
15.2258388,12.688199000000001,1.09620768
15.254867,12.712389166666668,0.78300549
15.3550027,12.795835583333334,1.09146219
15.5329595,12.944132916666668,1.34297305
15.6332506,13.027708833333334,1.16264451
15.7364735,13.113727916666667,1.11993512
15.7628019,13.13566825,1.05824378
15.8607169,13.217264083333333,1.21959037
15.9565679,13.297139916666668,1.16264451
16.0522834,13.376902833333334,1.08671671
16.1528968,13.460747333333334,0.93960659
16.2517529,13.543127416666668,1.09146219
16.3517185,13.626432083333334,1.11044415
16.5422708,13.785225666666667,0.96807951
16.5677529,13.80646075,0.84469683
16.6644887,13.887073916666667,0.84469683
16.7612605,13.967717083333334,0.76402354
16.8562089,14.04684075,0.86842427
16.9558189,14.129849083333335,0.9348611
17.0776543,14.231378583333333,0.86367878
17.2032212,14.336017666666669,1.11993512
17.3313686,14.442807166666668,1.1294261
17.3580404,14.465033666666667,1.10569866
17.4821842,14.568486833333333,1.00129793
17.5830919,14.652576583333333,0.82096939
17.6844668,14.737055666666667,0.74978707
17.7858862,14.821571833333334,1.03451634
17.8880607,14.906717250000002,1.15315354
17.9881949,14.990162416666667,1.05349829
18.0947005,15.078917083333332,1.15789902
18.2223848,15.185320666666668,1.01553439
18.2536587,15.21138225,0.9348611
18.3537841,15.294820083333333,0.93011561
18.4534725,15.37789375,0.94909756
18.553534,15.461278333333333,0.92062463
18.653613,15.5446775,0.67385927
18.7528061,15.627338416666667,1.20060841
18.852498,15.710415000000001,0.93011561
18.952417,15.793680833333335,0.79249646
19.0529543,15.877461916666666,0.57894951
19.1617915,15.968159583333334,0.78300549
19.25401,16.045008333333335,0.83046037
19.4037168,16.169764,0.88266073
19.5147399,16.26228325,1.10569866
19.6217545,16.351462083333335,1.05349829
19.7303865,16.441988750000004,1.14840805
19.7481423,16.456785250000003,1.21009939
19.8485097,16.540424750000003,1.02027988
19.9483677,16.62363975,0.92062463
20.0499303,16.70827525,0.94909756
20.1522741,16.793561750000002,0.98706146
20.2515357,16.876279750000002,0.87316976
20.3574542,16.964545166666667,0.84469683
20.4866116,17.072176333333335,0.83995134
20.5944348,17.162029,0.98231598
20.7310754,17.27589616666667,1.1294261
20.7602812,17.300234333333336,1.23382683
20.864443,17.387035833333336,1.1294261
20.9721508,17.476792333333336,1.17688098
21.0791401,17.565950083333334,1.39042793
21.187939,17.656615833333333,1.30500915
21.3008554,17.750712833333335,1.03451634
21.4148408,17.84570066666667,0.99180695
21.452038,17.876698333333337,1.31450012
21.552038,17.960031666666666,1.2053539
21.6537912,18.044826,0.87316976
21.75945,18.132875000000002,0.75927805
21.8984025,18.24866875,0.90638817
22.042028,18.368356666666667,1.18162646
22.0729144,18.394095333333333,1.06298927
22.1813839,18.484486583333336,1.03926183
22.2908579,18.575714916666666,0.87791524
22.4026627,18.668885583333335,0.83046037
22.514268,18.76189,1.30975463
22.6261762,18.855146833333333,0.90164268
22.7391896,18.949324666666666,0.87316976
22.7570743,18.964228583333334,0.89689719
22.8495873,19.04132275,0.94909756
22.9595825,19.132985416666667,1.02977085
23.0717233,19.226436083333333,0.89689719
23.1851404,19.320950333333336,0.80673293
23.2937824,19.411485333333335,0.73555061
23.408632,19.507193333333333,0.86842427
23.4547208,19.54560066666667,1.0107889
23.5531993,19.627666083333335,0.96807951
23.6588353,19.715696083333334,0.9348611
23.7705176,19.80876466666667,1.06298927
23.883224,19.902686666666668,0.97757049
23.9984791,19.998732583333336,1.0107889
24.1157727,20.096477250000003,0.84469683
24.2291825,20.190985416666667,0.93011561
24.3483445,20.290287083333332,0.91113366
24.3815258,20.317938166666668,0.89689719
24.4947773,20.412314416666668,1.23857232
24.6129628,20.510802333333334,0.95858854
24.7365358,20.613779833333332,0.93960659
24.7492681,20.62439008333333,0.96333402
24.8571722,20.714310166666667,0.84944232
24.9758099,20.813174916666668,0.71182317
25.0926951,20.91057925,0.80198744
25.2146754,21.0122295,1.19111744
25.249208,21.041006666666668,0.98231598
25.3651862,21.13765516666667,1.19111744
25.4824895,21.235407916666666,1.06298927
25.6009548,21.334129,0.84944232
25.7481675,21.456806250000003,0.98706146
25.8643528,21.553627333333335,1.03926183
25.980583,21.650485833333335,0.93011561
26.1039035,21.753252916666668,0.96333402
26.2255249,21.854604083333335,0.90638817
26.3514853,21.959571083333334,0.99655244
26.363836,21.969863333333333,0.84469683
26.4684458,22.05703816666667,1.01553439
26.5903297,22.158608083333334,1.10569866
26.7469531,22.289127583333332,1.33348207
26.8993762,22.416146833333332,1.0487528
26.9477832,22.456486,1.03926183
27.0542431,22.545202583333335,0.94909756
27.1740271,22.645022583333333,0.94909756
27.2946772,22.745564333333334,0.96333402
27.4133513,22.844459416666666,1.10569866
27.5397612,22.949801,1.42364634
27.5765075,22.98042291666667,1.14840805
27.6954746,23.07956216666667,0.86367878
27.8169631,23.18080258333333,0.81147841
27.9437668,23.286472333333332,1.06298927
27.9616722,23.3013935,1.09146219
28.0662844,23.388570333333334,0.94909756
28.1903388,23.491949,1.18162646
28.3139781,23.594981750000002,1.1294261
28.438793,23.69899416666667,0.88740622
28.4502737,23.70856141666667,0.76402354
28.5609192,23.800766000000003,1.03451634
28.6821521,23.901793416666667,1.09620768
28.8009362,24.000780166666665,0.83520585
28.9280206,24.106683833333335,0.98231598
28.9658483,24.138206916666668,0.87791524
29.0874353,24.239529416666667,1.14840805
29.216958,24.347465000000003,0.83995134
29.3433247,24.452770583333333,0.84469683
29.3574968,24.464580666666667,0.48878524
29.4673864,24.556155333333333,0.21354695
29.5490931,24.62424425,0.00949098
29.7392665,24.782722083333333,-0.85893329
29.7592225,24.799352083333336,-1.98835939
29.8495511,24.874625916666666,-8.85982573
30.0393985,25.032832083333336,-38.68521658
30.0608524,25.050710333333335,-87.63492328
30.1576301,25.131358416666668,-143.72658912
30.3044832,25.253736,-258.31588312
30.3563431,25.296952583333333,-278.53166117
30.4547718,25.3789765,-313.19744958
30.5663095,25.471924583333333,-361.74378981
30.6530646,25.5442205,-385.93154115
30.8312503,25.692708583333335,-397.09292846
30.8542855,25.711904583333332,-405.00840212
30.9583845,25.798653750000003,-406.77372358
31.0949343,25.91244525,-406.14257371
31.1526834,25.960569500000002,-406.55068566
31.3617396,26.134783000000002,-406.56966761
31.4689268,26.224105666666667,-405.9907181
31.5886401,26.32386675,-406.62661346
31.7100791,26.425065916666668,-406.69779578
31.8176553,26.51471275,-413.21335053
31.9306459,26.608871583333332,-418.85099004
31.9498265,26.62485541666667,-423.00803736
32.0505562,26.708796833333338,-425.42349065
32.2086693,26.84055775,-428.4416209
32.2467412,26.872284333333337,-434.9761576
32.3471818,26.955984833333336,-443.80751041
32.4594155,27.049512916666668,-446.24194565
32.5597499,27.133124916666667,-450.31357418
32.7164223,27.263685249999998,-460.72991991
32.7554676,27.296223000000005,-478.86242881
32.8546192,27.378849333333335,-496.9996832
32.9669726,27.472477166666668,-503.34440039
33.0556423,27.546368583333336,-527.6602799
33.228458,27.69038166666667,-563.61209551
33.2509812,27.709151,-579.68031721
33.3538985,27.79491541666667,-563.08060087
33.525446,27.93787166666667,-523.32764954
33.5532073,27.96100608333333,-507.75295856
33.6549378,28.0457815,-524.43809368
33.782615,28.152179166666667,-578.54614562
33.8869986,28.2391655,-640.11410439
33.9903761,28.325313416666667,-723.12692255
34.0501638,28.3751365,-837.87281765
34.2609847,28.550820583333337,-1197.86552246
34.3496153,28.62467941666667,-1328.26203634
34.5221838,28.7684865,-1463.57487558
34.5481962,28.790163500000002,-1610.0633386
34.6527484,28.877290333333335,-1770.83097443
34.783079,28.98589916666667,-1934.4981033
34.8476868,29.039739,-2093.34381656
35.0489219,29.20743491666667,-2251.85734568
35.0666797,29.222233083333336,-2412.46838041
35.1558474,29.2965395,-2562.68205136
35.3117422,29.42645183333333,-2721.40912742
35.357737,29.464780833333336,-3083.02953455
35.4569292,29.547441,-3275.60142964
35.5833142,29.652761833333333,-3476.63927497
35.6560627,29.713385583333334,-3685.8868142
35.8491312,29.874276000000002,-3898.92599818
35.8667996,29.888999666666667,-4110.49408095
35.9553926,29.96282716666667,-4321.82014383
36.1272358,30.106029833333334,-4534.56510758
36.1556618,30.129718166666667,-4746.46537449
36.2580328,30.215027333333335,-4949.61496189
36.4031594,30.33596616666667,-5146.4198321
36.452914,30.377428333333334,-5344.95205986
36.5522203,30.460183583333336,-5548.20130251
36.6704776,30.558731333333334,-5958.20670329
36.7539481,30.628290083333336,-6159.02625618
36.9647076,30.803922999999998,-6561.0782194
37.0593452,30.88278766666667,-6763.26921826
37.2342082,31.02850683333333,-6964.43993725
37.2537435,31.04478625,-7169.03689843
37.3550981,31.129248416666666,-7380.61447217
37.5033014,31.252751166666666,-7594.85426457
37.5526545,31.293878750000005,-7808.2256327